wavelength,transmission
360,0.03702371870811481
361,0.04302696396167409
362,0.04974587799024356
363,0.057184298732565225
364,0.06533959380724648
365,0.07420330799108923
366,0.08376181908414493
367,0.09399700386217677
368,0.10488691227198116
369,0.11639864532987623
370,0.12847162101697238
371,0.14104953807464207
372,0.1540736715015813
373,0.16745810921282503
374,0.18112175876630057
375,0.19498922174845001
376,0.2089828239374205
377,0.22301170599457604
378,0.2369855081535479
379,0.2508283174114692
380,0.2644547827255254
381,0.27777978056720687
382,0.29072951431022465
383,0.30325243970162014
384,0.31529770289231757
385,0.3268139298097739
386,0.3377798429010491
387,0.3481766657374082
388,0.3579765619888364
389,0.3671622616681112
390,0.37572349339317207
391,0.3836532765229485
392,0.3909476529575832
393,0.3976141362074344
394,0.40366721135315753
395,0.40912147893215145
396,0.4139975695925601
397,0.4183207773764922
398,0.4221221559083311
399,0.425438506001851
400,0.4283079149424515
401,0.4307690889906732
402,0.43286390455400486
403,0.43463283125748503
404,0.43611410263067196
405,0.43734945156195904
406,0.43837860505270326
407,0.43923766589031765
408,0.4399574599586528
409,0.4405665672053687
410,0.44109249635080994
411,0.44155623720863646
412,0.4419794354568087
413,0.44238451252089306
414,0.44279219343357434
415,0.4432172288911586
416,0.44367388448088296
417,0.44418018581918217
418,0.44474725285384015
419,0.44538733471409014
420,0.4461162046095242
421,0.446944592327083
422,0.44788100824217797
423,0.44893387871937757
424,0.4501128984403106
425,0.45142480578214683
426,0.45287349540760047
427,0.454464749324026
428,0.4562034465790136
429,0.4580994537304371
430,0.46017780365565675
431,0.46243463465963947
432,0.4648534302985076
433,0.4674386122284379
434,0.4701920289628
435,0.47311246492663495
436,0.4761989391167165
437,0.47945065618143823
438,0.4828654058671856
439,0.48643902021016455
440,0.49016845545408194
441,0.4940502361625778
442,0.49807929400632156
443,0.5022485529314884
444,0.5065527928573037
445,0.5109877657040839
446,0.515543620426918
447,0.5202133926505786
448,0.5249925181040439
449,0.5298713866686448
450,0.5348421040439858
451,0.539898833515856
452,0.5450354785094103
453,0.5502412763571559
454,0.5555056337726848
455,0.5608230025091464
456,0.5661838472867649
457,0.5715760503508178
458,0.5769891989333262
459,0.5824197645337852
460,0.587860941903065
461,0.5933007382166763
462,0.598735812033898
463,0.6041594242783822
464,0.6095596747652114
465,0.6149302644454887
466,0.6202665896240553
467,0.6255622379451542
468,0.6308042783474285
469,0.6359850404330609
470,0.6410996899580178
471,0.6461378342671773
472,0.6510883633544958
473,0.6559432355385711
474,0.6606994137133243
475,0.665346466901553
476,0.6698752504368742
477,0.6742839726232005
478,0.6785640090947239
479,0.6827071775896573
480,0.6867100340353818
481,0.6905699687698849
482,0.6942817071071137
483,0.6978384347285939
484,0.7012395433035217
485,0.7044830957045632
486,0.7075649135327797
487,0.7104823797415346
488,0.7132359638464988
489,0.7158267653490217
490,0.7182525191978093
491,0.7205147762703799
492,0.7226163623765998
493,0.7245574781083406
494,0.7263406934722642
495,0.7279697799209615
496,0.7294482040538306
497,0.730779192886887
498,0.7319661056886481
499,0.7330127615685573
500,0.7339223507195055
501,0.7346986069126981
502,0.7353460727432197
503,0.7358690387357315
504,0.7362724453109939
505,0.7365616694557187
506,0.7367413541781171
507,0.7368172711575195
508,0.7367947400167677
509,0.7366769471751872
510,0.7364668773053189
511,0.7361683559942288
512,0.7357867358626706
513,0.7353253065637015
514,0.7347871462575348
515,0.7341770449408452
516,0.7334999302688979
517,0.7327602217057159
518,0.7319616503268302
519,0.7311073983427203
520,0.7302016579325445
521,0.7292500064398163
522,0.7282576733438473
523,0.7272278143608362
524,0.7261628426344814
525,0.7250689844790201
526,0.7239504507298798
527,0.7228093863724393
528,0.7216487443542765
529,0.7204725837564037
530,0.719285531733343
531,0.7180920377456419
532,0.7168947598177536
533,0.7156958097884013
534,0.7144979522050012
535,0.7133032864254373
536,0.7121172070770944
537,0.7109503008060172
538,0.7098121039192212
539,0.7087007441200422
540,0.7076045432716008
541,0.7065277796538776
542,0.7054740409400068
543,0.7044425035178721
544,0.7034358884589246
545,0.7024566778669363
546,0.7015062572589644
547,0.7005854240357787
548,0.699694595476344
549,0.6988343451930514
550,0.6980060831558358
551,0.6972112545448887
552,0.6964504054743541
553,0.6957227407692049
554,0.6950292525915969
555,0.6943709537112132
556,0.6937474827269788
557,0.6931581158372072
558,0.6926029348161505
559,0.6920828796551237
560,0.691597686772978
561,0.6911469831357391
562,0.6907304431716876
563,0.6903469716722788
564,0.6899962630170146
565,0.6896785669367586
566,0.6893933028884935
567,0.6891395217209672
568,0.6889161487935491
569,0.6887222523091235
570,0.688557096617728
571,0.6884198471779026
572,0.688309284196142
573,0.6882241250772436
574,0.6881632426693151
575,0.6881256766408995
576,0.6881099165327875
577,0.6881145886229346
578,0.6881390001085177
579,0.688182328046456
580,0.688243682363478
581,0.6883223385856377
582,0.6884178894964034
583,0.6885292985640094
584,0.6886552402832236
585,0.6887953554822692
586,0.6889488094900204
587,0.6891145242415191
588,0.6892920341623164
589,0.6894801806244015
590,0.6896777908239206
591,0.6898846750327412
592,0.6901004254180081
593,0.6903242598686715
594,0.6905550795756733
595,0.6907919483118756
596,0.691033932175324
597,0.6912802288445196
598,0.6915310966857267
599,0.6917853789594482
600,0.6920407353334835
601,0.6922976141376945
602,0.6925556121425561
603,0.6928130549124889
604,0.6930687943536246
605,0.6933222622222581
606,0.69357317345962
607,0.6938210430281262
608,0.6940649560504948
609,0.6943035845596709
610,0.6945354098284395
611,0.6947605427512358
612,0.6949787271106066
613,0.6951878949863856
614,0.6953872755600903
615,0.6955767741581101
616,0.6957560910008507
617,0.6959233612039972
618,0.696077752633795
619,0.6962198041751368
620,0.6963484975407107
621,0.6964623649425982
622,0.6965604528623066
623,0.696643442492804
624,0.6967104610985662
625,0.6967598415850402
626,0.6967916550553604
627,0.6968060590019319
628,0.696802524339497
629,0.6967795412941595
630,0.6967370162030568
631,0.6966751180672469
632,0.6965930577470658
633,0.6964898505313744
634,0.6963648815331288
635,0.6962181866156409
636,0.6960501475894298
637,0.6958605289251235
638,0.695648226981692
639,0.6954122869168712
640,0.6951528431052506
641,0.6948704034197747
642,0.6945634824204768
643,0.6942316281215165
644,0.6938754262584926
645,0.6934950216989005
646,0.6930894741810505
647,0.692657994376659
648,0.6922014718172909
649,0.6917198657644726
650,0.6912123864200374
651,0.6906782370579324
652,0.6901181224348738
653,0.6895325021451344
654,0.688920661222082
655,0.6882826875456671
656,0.6876190135140993
657,0.6869299498685894
658,0.6862151315258073
659,0.685474573542356
660,0.6847087429119499
661,0.6839176874146083
662,0.6831013477994631
663,0.6822597574964037
664,0.6813932317039859
665,0.6805021227087742
666,0.6795867709083536
667,0.6786474630874767
668,0.6776840528906158
669,0.6766966658796505
670,0.6756862312421632
671,0.6746527175839712
672,0.6735961286148965
673,0.6725172040405318
674,0.6714166372640621
675,0.6702945862291079
676,0.6691508777936106
677,0.6679866254798662
678,0.666802250152082
679,0.6655974155295412
680,0.6643730390152943
681,0.6631297581022121
682,0.6618677700412304
683,0.660587428850437
684,0.6592891316547762
685,0.6579734145815544
686,0.6566410648482333
687,0.6552923019344524
688,0.6539272866002199
689,0.6525467118206428
690,0.6511512980988793
691,0.6497415402575685
692,0.6483176491559717
693,0.6468801108096388
694,0.6454296445454881
695,0.643966995976715
696,0.6424923147447125
697,0.6410060909639431
698,0.6395090280504041
699,0.6380008735877256
700,0.6364825904696939
701,0.6349556134862849
702,0.6334190736413604
703,0.6318727515429855
704,0.6303171273123719
705,0.6287524573702671
706,0.6271789768267674
707,0.625596994224269
708,0.6240068123896153
709,0.6224083455581865
710,0.6208014599939893
711,0.6191862173494016
712,0.6175628934912628
713,0.6159315858368761
714,0.6142921000949705
715,0.6126444744981626
716,0.6109888060571045
717,0.6093251504531
718,0.6076535063575482
719,0.6059738229987819
720,0.6042861437307069
721,0.6025909225138549
722,0.6008881868962863
723,0.599177630548023
724,0.5974591042029112
725,0.5957329661885862
726,0.5939995796226067
727,0.592258729807389
728,0.5905103193656642
729,0.5887544102864024
730,0.5869911463912785
731,0.5852204758611756
732,0.5834423384721784
733,0.5816567776650635
734,0.5798638434261211
735,0.578063459959689
736,0.5762555045966634
737,0.574440227132678
738,0.5726175819248291
739,0.5707872674233981
740,0.568949363107451
741,0.5671040653513635
742,0.5652515376693948
743,0.5633918463360571
744,0.5615248663527406
745,0.5596505344487744
746,0.5577691118257129
747,0.5558805118809355
748,0.5539846838130724
749,0.5520819338179004
750,0.5501722591547358
751,0.5482556492481555
752,0.5463322526622838
753,0.544402033950713
754,0.5424649105502942
755,0.5405208829364795
756,0.5385701979761112
757,0.5366128986540538
758,0.5346488615456936
759,0.5326782466415063
760,0.5307010849171501
761,0.5287172890074828
762,0.5267268670312347
763,0.5247299251767977
764,0.5227265231587734
765,0.5207165409160998
766,0.5187001945482721
767,0.5166775832220605
768,0.5146483272380548
769,0.512612574893488
770,0.5105705101456604
771,0.5085220326599234
772,0.5064672187352619
773,0.5044060034690414
774,0.5023381576935423
775,0.5002638446635924
776,0.498183219956959
777,0.4960962597827926
778,0.4940027476315167
779,0.49190273297130255
780,0.4897963670690593
781,0.48768340433055174
782,0.4855638658545921
783,0.48343784933478107
784,0.4813051468411659
785,0.4791658796380393
786,0.4770201529700049
787,0.4748677109922868
788,0.4727086269219545
789,0.4705429502445229
790,0.46837049708899
791,0.46619137086432844
792,0.4640056134535965
793,0.46181306924633586
794,0.45961366375841095
795,0.45740747400550735
796,0.4551946047010034
797,0.4529748111436353
798,0.45074802366426603
799,0.44851436117775795
800,0.44627385807636705
801,0.44402648647206727
802,0.44177217403453156
803,0.43951082757468113
804,0.4372424504229788
805,0.43496706497615445
806,0.4326846320509303
807,0.43039518711685687
808,0.42809874509554907
809,0.4257952332511816
810,0.4234845983417881
811,0.421166879192272
812,0.4188421815420125
813,0.4165104319300803
814,0.41417148744319177
815,0.41182527450615086
816,0.4094720271310926
817,0.4071118231494245
818,0.4047445360557189
819,0.4023700386081323
820,0.39998841723082135
821,0.3975998483580346
822,0.3952043433451375
823,0.39280174643010274
824,0.39039197877298004
825,0.38797525753328543
826,0.3855516629318944
827,0.3831211509309054
828,0.38068364076990235
829,0.37823923875174936
830,0.37578805460260495
831,0.37333010579792186
832,0.37086540965324183
833,0.36839393918905916
834,0.3659156908737847
835,0.3634309366249642
836,0.3609397425351281
837,0.3584420193007645
838,0.3559379222023234
839,0.3534276374577527
840,0.3509113190210163
841,0.34838907361960386
842,0.3458609749017914
843,0.34332713269165044
844,0.3407877500336169
845,0.3382429404905254
846,0.3356927958410494
847,0.33313746883707873
848,0.3305772377104836
849,0.3280123732629043
850,0.32544303267658703
851,0.3228693469456738
852,0.32029161453046795
853,0.31771025864031804
854,0.31512542925210923
855,0.3125372932933172
856,0.30994611859730997
857,0.3073522224018766
858,0.3047557588089236
859,0.3021568850129352
860,0.29955608027084374
861,0.2969535885256213
862,0.29434952732600833
863,0.29174413153612344
864,0.28913770095355634
865,0.2865305225782042
866,0.2839228196210003
867,0.2813148201055888
868,0.27870680024332944
869,0.2760990674485681
870,0.27349178002988167
871,0.27088518018096525
872,0.26827962679230427
873,0.26567532574437
874,0.26307254591560963
875,0.2604716073838859
876,0.25787267489207466
877,0.25527600214187085
878,0.252681901831133
879,0.2500905942446164
880,0.2475023701066823
881,0.2449175307631604
882,0.24233628566867904
883,0.2397588803213313
884,0.23718559208831802
885,0.23461670634861043
886,0.23205248543340382
887,0.22949317345317555
888,0.2269390081290352
889,0.22439025169417495
890,0.22184719055179702
891,0.21931012023809185
892,0.21677929331259765
893,0.21425491442026942
894,0.2117371997926919
895,0.20922651941500248
896,0.20672315523428306
897,0.2042272947680094
898,0.20173914439247026
899,0.19925903891822389
900,0.19678732256911685
901,0.19432418048600708
902,0.1918698065996092
903,0.1894244584730284
904,0.1869884629456995
905,0.18456203930571516
906,0.1821454109207774
907,0.17973886585294688
908,0.17734260678160968
909,0.17495686926182877
910,0.17258196795098343
911,0.17021823046152432
912,0.1678658637177141
913,0.16552500118315847
914,0.16319594891014585
915,0.16087898124041253
916,0.15857427760792359
917,0.15628193880984978
918,0.15400217672492247
919,0.15173523391375957
920,0.1494812329543083
921,0.1472403159858729
922,0.14501266684904254
923,0.1427985002193637
924,0.14059796744379918
925,0.13841121639587362
926,0.13623842795592161
927,0.13407973912601961
928,0.13193529270365695
929,0.1298052613664246
930,0.12768982331428227
